Time (ps),Rg,Rg\sX\N,Rg\sY\N,Rg\sZ\N
nan,nan,nan,nan,nan
nan,nan,nan,nan,nan
nan,nan,nan,nan,nan
nan,nan,nan,nan,nan
nan,nan,nan,nan,nan
nan,nan,nan,nan,nan
nan,nan,nan,nan,nan
nan,nan,nan,nan,nan
nan,nan,nan,nan,nan
nan,nan,nan,nan,nan
nan,nan,nan,nan,nan
nan,nan,nan,nan,nan
nan,nan,nan,nan,nan
nan,nan,nan,nan,nan
nan,nan,nan,nan,nan
nan,nan,nan,nan,nan
nan,nan,nan,nan,nan
nan,nan,nan,nan,nan
nan,nan,nan,nan,nan
nan,nan,nan,nan,nan
nan,nan,nan,nan,nan
nan,nan,nan,nan,nan
nan,nan,nan,nan,nan
nan,nan,nan,nan,nan
nan,nan,nan,nan,nan
nan,nan,nan,nan,nan
nan,nan,nan,nan,nan
nan,nan,nan,nan,nan
nan,nan,nan,nan,nan
nan,nan,nan,nan,nan
nan,nan,nan,nan,nan
nan,nan,nan,nan,nan
nan,nan,nan,nan,nan
nan,nan,nan,nan,nan
nan,nan,nan,nan,nan
nan,nan,nan,nan,nan
nan,nan,nan,nan,nan
nan,nan,nan,nan,nan
nan,nan,nan,nan,nan
nan,nan,nan,nan,nan
nan,nan,nan,nan,nan
nan,nan,nan,nan,nan
nan,nan,nan,nan,nan
nan,nan,nan,nan,nan
nan,nan,nan,nan,nan
nan,nan,nan,nan,nan
nan,nan,nan,nan,nan
nan,nan,nan,nan,nan
nan,nan,nan,nan,nan
nan,nan,nan,nan,nan
nan,nan,nan,nan,nan
nan,nan,nan,nan,nan
nan,nan,nan,nan,nan
nan,nan,nan,nan,nan
nan,nan,nan,nan,nan
nan,nan,nan,nan,nan
nan,nan,nan,nan,nan
nan,nan,nan,nan,nan
nan,nan,nan,nan,nan
nan,nan,nan,nan,nan
nan,nan,nan,nan,nan
nan,nan,nan,nan,nan
nan,nan,nan,nan,nan
nan,nan,nan,nan,nan
nan,nan,nan,nan,nan
nan,nan,nan,nan,nan
nan,nan,nan,nan,nan
nan,nan,nan,nan,nan
nan,nan,nan,nan,nan
nan,nan,nan,nan,nan
nan,nan,nan,nan,nan
nan,nan,nan,nan,nan
nan,nan,nan,nan,nan
nan,nan,nan,nan,nan
nan,nan,nan,nan,nan
nan,nan,nan,nan,nan
nan,nan,nan,nan,nan
nan,nan,nan,nan,nan
nan,nan,nan,nan,nan
nan,nan,nan,nan,nan
nan,nan,nan,nan,nan
nan,nan,nan,nan,nan
nan,nan,nan,nan,nan
nan,nan,nan,nan,nan
nan,nan,nan,nan,nan
nan,nan,nan,nan,nan
nan,nan,nan,nan,nan
nan,nan,nan,nan,nan
nan,nan,nan,nan,nan
nan,nan,nan,nan,nan
nan,nan,nan,nan,nan
nan,nan,nan,nan,nan
nan,nan,nan,nan,nan
nan,nan,nan,nan,nan
nan,nan,nan,nan,nan
nan,nan,nan,nan,nan
nan,nan,nan,nan,nan
nan,nan,nan,nan,nan
nan,nan,nan,nan,nan
nan,nan,nan,nan,nan
495.0,3.7888010000000008,2.3255022000000003,3.1468225999999997,3.6603066
505.0,3.7901102000000004,2.3275853000000004,3.1472808,3.6613089000000008
515.0,3.7915358,2.3298280000000005,3.1477292,3.6624529999999997
525.0,3.7926459000000006,2.3317911000000002,3.1479039,3.6633574999999996
535.0,3.7939266000000003,2.3337335,3.1483379,3.6644034
545.0,3.7950319,2.3356822999999998,3.148518,3.6653000999999996
555.0,3.7960116000000004,2.3376421,3.148486,3.6661143999999997
565.0,3.7971508,2.3393830999999996,3.1487549,3.6671367
575.0,3.7984379,2.340913,3.1494334000000004,3.6682427999999994
585.0,3.7997555,2.3423602999999997,3.1502519000000007,3.6693427999999995
595.0,3.8012185,2.3436038,3.1513266,3.6706552
605.0,3.8026284000000006,2.3447744,3.1523534,3.6719457999999996
615.0,3.8039353000000005,2.3457394,3.1533258000000006,3.673202
625.0,3.8052108000000002,2.3467591,3.1541574000000003,3.6744790999999997
635.0,3.8066415,2.3481395999999997,3.1549654000000005,3.6758643
645.0,3.807960800000001,2.3494759000000003,3.1556437,3.6771546
655.0,3.8093014,2.3508317,3.1563906999999993,3.6784192
665.0,3.8105490000000004,2.3521089,3.1570672999999996,3.6796008999999996
675.0,3.8118271,2.353301,3.1578806999999993,3.6807863
685.0,3.8132552,2.3542521999999995,3.1589971,3.6821778999999997
695.0,3.8143774999999995,2.3548766,3.1600254999999997,3.6832219
705.0,3.8152993999999993,2.3554399,3.1607701,3.6841319999999995
715.0,3.816440599999999,2.356211,3.1616249000000005,3.6852693
725.0,3.8176345999999994,2.3569141,3.1625498000000003,3.6864986999999996
735.0,3.819185799999999,2.3577291,3.163803,3.6881138000000004
745.0,3.8210901,2.3587376999999994,3.1653496000000003,3.6900853000000007
755.0,3.8224766,2.3594600999999997,3.1664468000000006,3.6915531000000006
765.0,3.8236965000000005,2.3600537,3.1674714000000006,3.692820600000001
775.0,3.8251124999999995,2.3605202000000003,3.168713400000001,3.6943882000000006
785.0,3.8265116999999997,2.3610197000000004,3.1699162000000007,3.6959345999999997
795.0,3.827792799999999,2.3615813000000005,3.1708682000000006,3.6974111
805.0,3.8288431999999997,2.3620629,3.1716246,3.6986290000000004
815.0,3.8301506,2.3623622,3.1728097,3.7001255000000004
825.0,3.8309905999999994,2.3627794,3.1733558,3.7011291
835.0,3.8317671,2.3634438999999996,3.1737085,3.7020130000000004
845.0,3.8323923999999994,2.3640652,3.1739698,3.7026907000000007
855.0,3.8329156999999996,2.3644724000000004,3.1742333,3.7032895000000003
865.0,3.8334992999999997,2.3648464000000002,3.1746217999999997,3.7039260999999994
875.0,3.8337863,2.3648296,3.1749650999999997,3.7042349000000003
885.0,3.8341258999999996,2.3647526,3.1754382,3.7045796
895.0,3.8344020999999997,2.3645114,3.1759289,3.7048818
905.0,3.8345298,2.3642342,3.1762246,3.7050674000000003
915.0,3.834516699999999,2.3640099000000006,3.176361,3.7050657
925.0,3.8349056000000004,2.3640317,3.176854,3.7054335
935.0,3.8355291000000005,2.3640105,3.1776714000000004,3.7060359000000007
945.0,3.8361553,2.3639864999999993,3.17843,3.7066971
955.0,3.8366027000000003,2.3638813999999995,3.1789574000000003,3.7072385000000003
965.0,3.8371738,2.3638714,3.1795150000000003,3.7079481
975.0,3.837591699999999,2.3639303,3.1798532,3.7084853000000004
985.0,3.8381469,2.3639049,3.180324400000001,3.7092464
995.0,3.8385133000000002,2.3634906,3.1808045000000003,3.7098608
1005.0,3.8389347,2.3631919000000003,3.1812687,3.7105280000000005
1015.0,3.8394084,2.3627982999999997,3.1818202999999996,3.711288900000001
1025.0,3.8398793,2.362633,3.1821744,3.712068
1035.0,3.840319499999999,2.3626298,3.1824122999999997,3.7127783
1045.0,3.840770799999999,2.3627773,3.1826356,3.7134263999999995
1055.0,3.841294599999999,2.3633007,3.1825610999999996,3.7142334999999993
1065.0,3.8417729999999994,2.3640377,3.1823278000000004,3.7149429000000005
1075.0,3.8423423,2.3649345999999998,3.1820616999999998,3.7157668
1085.0,3.8427886,2.3657646999999997,3.1816379,3.7165103
1095.0,3.8431868,2.3667143,3.1811067000000004,3.7171626000000004
1105.0,3.843630500000001,2.3677967000000004,3.1804787,3.7178999
1115.0,3.8439584,2.3687241,3.1797422,3.7185899999999994
1125.0,3.8442243,2.3695195,3.1790722,3.7191795999999995
1135.0,3.84449,2.3704702,3.1781967999999994,3.7198345
1145.0,3.8447492,2.3713826000000005,3.1774183,3.7204234
1155.0,3.8447788000000003,2.3725488000000006,3.1762049999999995,3.7207386000000002
1165.0,3.8448888000000006,2.3740776,3.1748217999999997,3.7211276000000004
1175.0,3.8447949999999995,2.375734,3.1731956,3.7212126999999997
1185.0,3.8449414,2.3778071,3.1716364000000006,3.7214647999999992
1195.0,3.8451261999999997,2.3797811,3.1701195,3.7218212999999998
1205.0,3.8454812999999994,2.3818377,3.1686297000000003,3.7224512
1215.0,3.8457459,2.3837777,3.1671101,3.7229988000000005
1225.0,3.8457849,2.3856572999999996,3.1653746000000003,3.7233066000000004
1235.0,3.8460524999999994,2.3875276,3.1639256000000002,3.7238509000000004
1245.0,3.8463199999999995,2.3895807,3.1623720999999994,3.7243684000000004
1255.0,3.8468066999999997,2.3914335,3.1612248,3.7251403
1265.0,3.8471892,2.3929614,3.1602002000000002,3.7258061
1275.0,3.8477394,2.3943859,3.1595386000000008,3.726580199999999
1285.0,3.8478341,2.3956694000000005,3.158389,3.7269195999999996
1295.0,3.8479069,2.3969609000000003,3.1571636,3.7272833
1305.0,3.847854499999999,2.3985232,3.1555573999999997,3.7275420999999995
1315.0,3.8480304999999997,2.4003365000000003,3.1540730000000003,3.728006899999999
1325.0,3.8479475999999995,2.4019333000000005,3.1523604,3.7282528999999993
1335.0,3.8481388999999995,2.4033742,3.1510787999999996,3.728795399999999
1345.0,3.8482501,2.4047088,3.1498523,3.729197899999999
1355.0,3.8483362,2.4062538,3.1485416,3.7294753
1365.0,3.8482995000000004,2.4075679,3.1472635000000007,3.7296291999999998
1375.0,3.8479706000000005,2.4087706,3.145712100000001,3.7294823000000004
1385.0,3.8474601000000006,2.4097515,3.1441212000000007,3.7291382000000004
1395.0,3.8465291000000006,2.4103709,3.1422631,3.7283806
1405.0,3.8455539000000005,2.4108140000000002,3.1405017,3.7275666000000007
1415.0,3.8446753,2.4113140000000004,3.1387939,3.7268725000000003
1425.0,3.8436983000000002,2.4116286000000002,3.1371243999999994,3.7260633999999997
1435.0,3.8426112,2.4120684000000003,3.1352598,3.7251136999999996
1445.0,3.8414787,2.4127216000000002,3.1331728999999995,3.7241227999999995
1455.0,3.8404445000000003,2.4135250000000004,3.1311287999999995,3.7231875
1465.0,3.8394734000000006,2.414462800000001,3.1290386999999997,3.7223341
1475.0,3.8388161000000003,2.4155949000000003,3.1271725,3.721808399999999
1485.0,3.8382442,2.4166675,3.125382900000001,3.7214351000000003
1495.0,3.8375907999999996,2.4175522000000003,3.1236817000000006,3.720938
1505.0,3.8368299,2.4180296,3.122213700000001,3.720282
1515.0,3.8359018000000003,2.4181360000000005,3.1208672,3.7194217
1525.0,3.8350657999999997,2.4183489000000007,3.1195502,3.7186574999999995
1535.0,3.8344236000000005,2.4186502000000005,3.1184083,3.7180909000000004
1545.0,3.8340266,2.4190709000000004,3.117485,3.7177664999999998
1555.0,3.8338765,2.4196917000000004,3.1167833,3.7176346999999996
1565.0,3.8338754,2.4204583,3.1162061,3.7176135
1575.0,3.8334662,2.4209274,3.1152465,3.7172654
1585.0,3.8332298000000002,2.4214656,3.114461,3.7170822999999995
1595.0,3.8327976,2.4220263,3.1135306000000003,3.7166042000000004
1605.0,3.8324052,2.4226269,3.1126697,3.716126200000001
1615.0,3.8317403000000003,2.4234456,3.1112926000000005,3.7153792000000005
1625.0,3.8311962000000004,2.4241110999999997,3.1101979999999996,3.7147452
1635.0,3.8307231,2.4246526,3.1092791,3.714183
1645.0,3.8302801,2.4249519,3.108566599999999,3.7136679000000004
1655.0,3.8299798,2.4253365,3.108016599999999,3.7132569
1665.0,3.8293598999999996,2.4253632,3.1072862,3.7125723000000006
1675.0,3.8287458999999995,2.4255063000000003,3.1064884,3.7118828000000006
1685.0,3.8280805999999994,2.4256914,3.1056457999999996,3.7111018000000007
1695.0,3.8277248,2.4260062,3.1049408000000005,3.710759400000001
1705.0,3.827515899999999,2.4264335000000004,3.1043120999999996,3.710586600000001
1715.0,3.8273315999999995,2.4270514,3.1035293999999993,3.7104699000000005
1725.0,3.8268034999999996,2.4275672999999998,3.1024344999999993,3.7099757000000007
1735.0,3.8262048000000006,2.4280149,3.101365799999999,3.7093591000000004
1745.0,3.8254129,2.4282225,3.100173399999999,3.7086001
1755.0,3.8250483999999996,2.4288331,3.0992521999999996,3.7082324000000004
1765.0,3.8244637999999993,2.4294454,3.0980127,3.7076765000000007
1775.0,3.8240826999999995,2.4304650999999997,3.0967545999999997,3.707290800000001
1785.0,3.8237295000000002,2.4313879,3.0955677,3.706963600000001
1795.0,3.8235330999999997,2.4323205999999997,3.0945853,3.7067836
1805.0,3.8235020999999993,2.4332713999999998,3.0937737,3.7067927000000003
1815.0,3.8233308999999998,2.4342507999999996,3.0928139,3.7066254999999995
1825.0,3.8231671,2.4350764999999996,3.0919889,3.7064549999999996
1835.0,3.8227670999999996,2.4358153,3.0909023,3.7060740999999995
1845.0,3.8223716999999997,2.4362901000000003,3.0900121,3.7057115000000005
1855.0,3.8218878000000003,2.4367302,3.0890868,3.705219000000001
1865.0,3.8214976000000003,2.4371807,3.0882860999999995,3.704808500000001
1875.0,3.8211783,2.4376705999999997,3.0874732000000007,3.7045298000000004
1885.0,3.8211093999999997,2.4382111999999996,3.0868533,3.704571800000001
1895.0,3.821052500000001,2.4387314999999994,3.0862822000000008,3.7046123
1905.0,3.8210679000000005,2.4390874999999994,3.0859665,3.7046893000000005
1915.0,3.8208518999999996,2.4390230999999996,3.0856851,3.7045250000000003
1925.0,3.8208816000000008,2.4389164999999995,3.0856905,3.7046488999999996
1935.0,3.8206828,2.438817,3.0854109000000007,3.704541
1945.0,3.8202334000000002,2.4385944,3.0849280999999995,3.7041668999999997
1955.0,3.8198183,2.4384373999999998,3.0845583,3.7037255000000004
1965.0,3.8194575000000004,2.4385513999999997,3.0841066,3.7032934
1975.0,3.8192969000000003,2.4384713,3.0840481,3.703063
1985.0,3.8187554000000006,2.4383935,3.0835274999999998,3.7024386
1995.0,3.8185565,2.4383779,3.0834516,3.7021034999999993
2005.0,3.8184495999999997,2.4385426,3.0834006000000005,3.7018219999999995
2015.0,3.8182451000000004,2.4388569999999996,3.0831356,3.7014259
2025.0,3.8180111,2.4389592999999996,3.0829978,3.7009945000000006
2035.0,3.8178422999999997,2.4391667999999997,3.0827976,3.7006813000000007
2045.0,3.8175193999999992,2.4394027,3.0823579,3.700233
2055.0,3.8175532,2.4395004,3.0825048999999995,3.7001155999999997
2065.0,3.8174653999999997,2.4393689,3.0826026999999994,3.6999378000000007
2075.0,3.8173830000000004,2.4390984,3.0827587999999997,3.6998122999999996
2085.0,3.8174433,2.4387397,3.0831941,3.6998045000000004
2095.0,3.8175827,2.4381658999999996,3.0838396,3.6999255000000004
2105.0,3.8175809999999997,2.4374299999999995,3.0843726000000005,3.6999602000000005
2115.0,3.8174411999999993,2.4366003000000003,3.0847707000000004,3.6998842
2125.0,3.8175200999999994,2.4359087999999995,3.0852464,3.7001055000000003
2135.0,3.8176168,2.4350821,3.0859335,3.7002800000000002
2145.0,3.8176617,2.4342867,3.0865080999999996,3.700417000000001
2155.0,3.8177171999999997,2.4334184,3.0870988,3.7006132000000003
2165.0,3.817931100000001,2.4324454,3.088040499999999,3.7009132000000005
2175.0,3.818028900000001,2.431386,3.0889192999999993,3.7010888
2185.0,3.8183050000000005,2.4301998000000005,3.0901586999999995,3.7014168000000005
2195.0,3.8186429000000004,2.4288709,3.0915771000000003,3.7018135
2205.0,3.8188245000000007,2.427261,3.093087300000001,3.7019921
2215.0,3.8190609000000006,2.425808,3.0945672000000006,3.7022052000000003
2225.0,3.819410000000001,2.4245016,3.0960952,3.7025140000000003
2235.0,3.8198098000000003,2.423131,3.0976668999999997,3.7029273000000003
2245.0,3.8200537000000003,2.4215686,3.0991157000000005,3.7032459999999996
2255.0,3.8201513000000005,2.4202285,3.1001630000000002,3.7034426000000003
2265.0,3.8202384,2.4189785,3.101065,3.7036756999999993
2275.0,3.8199988,2.4176139,3.1016677999999995,3.703555
2285.0,3.819916800000001,2.4163349,3.1024332999999995,3.7035678999999995
2295.0,3.8199150000000004,2.4151871,3.1032602,3.7036040999999993
2305.0,3.8198742000000006,2.4141068,3.1040463000000007,3.7035578
2315.0,3.8195898,2.4128496,3.1046288000000004,3.7032978
2325.0,3.8198167,2.4117474999999997,3.105690300000001,3.7035966
2335.0,3.8199118999999997,2.4105445,3.106616700000001,3.7037999000000004
2345.0,3.8199448999999994,2.4092626,3.1074839,3.70397
2355.0,3.8196948999999996,2.4077126,3.1081466,3.703912
2365.0,3.8194645999999994,2.4062197,3.1087866,3.7038664999999993
2375.0,3.8194778,2.4050369,3.1095139,3.7040547
2385.0,3.8195606,2.4039167,3.110285,3.7043061999999995
2395.0,3.8199930999999996,2.4029121,3.1113806,3.7049316000000005
2405.0,3.8204122999999997,2.4019565999999997,3.1123412999999998,3.7056082000000004
2415.0,3.8209084,2.400958,3.1134368,3.7063523
2425.0,3.8213716000000004,2.3998915,3.1145605000000005,3.7070422
2435.0,3.8218394000000004,2.3988599999999995,3.1157133,3.7076955999999996
2445.0,3.8226828,2.3979991000000003,3.1172707999999996,3.7086749999999995
2455.0,3.8235489000000005,2.3968727,3.1190509999999994,3.709693099999999
2465.0,3.824245000000001,2.3956307,3.1207182999999996,3.7105331
2475.0,3.8248931000000006,2.3943437,3.1223818999999997,3.7113114999999994
2485.0,3.8255513000000003,2.3932322000000004,3.1239506,3.7120773999999996
2495.0,3.8260666000000003,2.3919867999999997,3.1254872000000002,3.7126586
2505.0,3.8264489,2.3906836,3.126884600000001,3.7131187
2515.0,3.8269409999999997,2.3897522,3.128143400000001,3.7136825
2525.0,3.8274456,2.3890892000000004,3.1293591000000003,3.7141377999999996
2535.0,3.8278097000000004,2.3880953,3.1305216000000002,3.714556
2545.0,3.8281666999999997,2.3869916,3.1317954,3.7149368999999997
2555.0,3.8286821000000004,2.3860343,3.1331689999999996,3.7154683
2565.0,3.8289431,2.3849615999999996,3.1342379,3.7158037000000004
2575.0,3.8293808,2.3840177,3.1354685,3.7162836999999995
2585.0,3.8299105000000004,2.3831842,3.1367570000000002,3.7168342999999995
2595.0,3.8305431,2.382371,3.1380386,3.7175883999999995
2605.0,3.8308854999999995,2.3814538,3.1389597000000005,3.718113399999999
2615.0,3.8313457,2.3804155000000002,3.1401243999999995,3.718758
2625.0,3.8316465999999996,2.379444,3.1410142000000008,3.7192582999999986
2635.0,3.8316853,2.3782118,3.141690100000001,3.719571399999999
2645.0,3.8318457,2.3773316,3.1423298,3.7199386999999997
2655.0,3.8321998,2.3766097000000004,3.1430289000000005,3.7205511
2665.0,3.8327098,2.3761158000000004,3.1438329999999994,3.721247
2675.0,3.8330914000000003,2.3752750000000007,3.1447119999999997,3.7218319000000006
2685.0,3.8333377,2.3744736000000004,3.145416799999999,3.7222560000000002
2695.0,3.8334666,2.3736483,3.1461326999999994,3.7224443000000007
2705.0,3.8334153999999994,2.3727927,3.1467015,3.7224018
2715.0,3.8334176,2.3717217999999995,3.1475201,3.7223968000000003
2725.0,3.8335233000000004,2.3706666000000003,3.148357,3.7225786
2735.0,3.8333804,2.3696745,3.1487777999999995,3.7225619000000005
2745.0,3.8334937,2.3688453,3.1493903999999997,3.7228077
2755.0,3.8338333,2.3679737999999997,3.1502274999999997,3.7233593000000007
2765.0,3.8343397999999995,2.3672218999999997,3.1511780999999996,3.7240873000000003
2775.0,3.8346780999999996,2.3663244,3.1520325000000002,3.7246496
2785.0,3.8351433999999993,2.3657849,3.1528058,3.7253132000000004
2795.0,3.8356323,2.3654770000000003,3.1534449,3.7259865999999993
2805.0,3.8358887000000004,2.3654403,3.1535691000000003,3.7264343
2815.0,3.8361319000000003,2.3654548,3.1536287,3.7268750999999996
2825.0,3.8364659,2.3653551999999998,3.1538766,3.7274197
2835.0,3.8368462,2.3651919,3.1543243999999997,3.7279341
2845.0,3.8372987,2.3654664000000003,3.1545144,3.7285290000000004
2855.0,3.8378896000000005,2.3658160000000006,3.1547738999999995,3.7293024000000004
2865.0,3.8383956,2.3660864999999998,3.1549220000000004,3.730045100000001
2875.0,3.8392842000000003,2.3666856999999997,3.1553670000000005,3.7311143
2885.0,3.8401494,2.3676181,3.1555468,3.732140200000001
2895.0,3.840963,2.3685359,3.155678,3.7331123
2905.0,3.8418699,2.3696422999999998,3.1556961,3.7342524000000004
2915.0,3.8429984999999998,2.3708798,3.1558418,3.7356626000000004
2925.0,3.8436339000000004,2.3718451999999997,3.1556237999999994,3.7365415
2935.0,3.8443473,2.3727017,3.1556012999999994,3.737485
2945.0,3.8450889999999998,2.3736886,3.1555994,3.7383833999999996
2955.0,3.8457738,2.3747160000000003,3.1554484,3.7392603
2965.0,3.8463556999999993,2.3752303,3.1554798,3.7401009000000003
2975.0,3.8468602,2.3758800000000004,3.1553302000000008,3.7408497000000005
2985.0,3.847748899999999,2.3768429,3.155444600000001,3.7419627000000006
2995.0,3.8482678999999997,2.3778948,3.1550530000000006,3.7426819000000005
3005.0,3.8485651999999995,2.3784946,3.1547125,3.7431937000000004
3015.0,3.8490195,2.379039,3.1546363000000004,3.7438426000000002
3025.0,3.849606100000001,2.3797367,3.1545629999999996,3.7446616
3035.0,3.849754700000001,2.3798695,3.1543609,3.7450507000000006
3045.0,3.850106400000001,2.3799413,3.1544619,3.7456441999999996
3055.0,3.8502696000000003,2.3799802999999997,3.1543146,3.7460783999999996
3065.0,3.8506162,2.380065,3.154375,3.7466868
3075.0,3.8509803,2.3801463,3.1544911,3.747287
3085.0,3.8514021,2.3802487,3.1546529999999997,3.7479533999999997
3095.0,3.8516297,2.3800901999999997,3.1548049,3.748395
3105.0,3.8519676000000005,2.3798639,3.1551892000000006,3.7489113000000005
3115.0,3.8522324,2.3795015999999998,3.1556191,3.7493248000000006
3125.0,3.852347,2.378955,3.1561217,3.7494865000000006
3135.0,3.8522196,2.3784249,3.1563887,3.7493392
3145.0,3.8521181,2.3779545000000004,3.1566904,3.7491769
3155.0,3.8520932000000006,2.3775929000000002,3.1570987999999987,3.7490141
3165.0,3.8519339000000006,2.3774092000000002,3.1571301999999997,3.7487777999999996
3175.0,3.8519551,2.3769479000000002,3.1575379,3.7487732000000005
3185.0,3.8517370000000004,2.3765818000000003,3.1575367,3.7485593
3195.0,3.851578000000001,2.3764645,3.1574449999999996,3.7483839999999997
3205.0,3.8513221000000004,2.3762475999999997,3.1572973,3.7481196
